time (s)	Resistance (Ù)	Resistance (Ù)	Resistance (Ù)	Resistance (Ù)
	Vb = 8.7 V 	Vb = 9 V 	Vb = 9.2 V 	Vb = 9.5 V 
0	2379999.99999988	2379999.99999988	2379999.99999988	2379999.99999988
1E-6	2287819.98058213	2232411.35863289	2186580.84192208	2107334.5654866
2E-6	2223653.18512831	2146739.61830062	2088662.95174197	1996027.5690322
3E-6	2174716.49146393	2086862.62335408	2023641.04997105	1926470.6598599
4E-6	2135313.34355985	2041077.61943588	1975249.8538548	1876198.19388598
5E-6	2102420.60341993	2004141.92982675	1936860.45140696	1836998.07120613
6E-6	2074245.99458462	1973263.52599562	1905129.88457051	1804962.4723423
7E-6	2049641.86832838	1946782.76452767	1878141.13752755	1777931.1605205
8E-6	2027830.21633362	1923634.87177358	1854695.13957871	1754586.90141352
9E-6	2008259.97929844	1903096.78543846	1833993.04199024	1734068.30380386
1E-5	1990527.02788306	1884655.6838187	1815476.71370037	1715782.03684792
1.1E-5	1974326.36029605	1867935.02341906	1798741.0023584	1699302.38008783
1.2E-5	1959422.33247772	1852650.35973847	1783482.90192559	1684313.73471168
1.3E-5	1945629.15312324	1838581.67101975	1769469.9866926	1670575.86452819
1.4E-5	1932797.98361093	1825555.48824372	1756520.08688163	1657901.79619168
1.5E-5	1920807.58225918	1813432.51576245	1744487.96896639	1646143.08133982
1.6E-5	1909558.0364259	1802099.41296651	1733255.88363698	1635180.05343637
1.7E-5	1898966.05526992	1791462.67101343	1722727.19689367	1624914.900685
1.8E-5	1888961.49723073	1781444.26726396	1712821.64559999	1615266.58712608
1.9E-5	1879484.76252408	1771978.47017734	1703471.74398393	1606167.28395575
2E-5	1870484.73885229	1763009.37570533	1694620.32853851	1597559.6549006
2.1E-5	1861917.33052367	1754489.07291795	1686218.53065284	1589394.81474155
2.2E-5	1853744.21638516	1746376.1846717	1678224.25659134	1581630.7504302
2.3E-5	1845931.89194178	1738634.74146577	1670600.99631137	1574231.09715362
2.4E-5	1838450.89896854	1731233.28314549	1663316.88466516	1567164.17423503
2.5E-5	1831275.20305772	1724144.13954296	1656343.94703509	1560402.2179532
2.6E-5	1824381.68602382	1717342.84868182	1649657.49630183	1553920.76469157
2.7E-5	1817749.72864501	1710807.68205576	1643235.63923614	1547698.15055711
2.8E-5	1811360.86519533	1704519.25430184	1637058.87262875	1541715.10208244
2.9E-5	1805198.49546382	1698460.19990489	1631109.74951418	1535954.39885441
3E-5	1799247.6431802	1692614.9036114	1625372.60152447	1530400.59344761
3.1E-5	1793494.75217489	1686969.27421386	1619833.30641859	1525039.77739012
3.2E-5	1787927.51343182	1681510.55361258	1614479.09226494	1519859.38438985
3.3E-5	1782534.71759446	1676227.15476794	1609298.37156995	1514848.02393723
3.4E-5	1777306.12856947	1671108.52346357	1604280.60003215	1509995.33983739
3.5E-5	1772232.37471612	1666145.01981144	1599416.15567092	1505291.88932973
3.6E-5	1767304.85477202	1661327.81621737	1594696.23490963	1500729.03930876
3.7E-5	1762515.65618948	1656648.80914358	1590112.76284375	1496298.87682916
3.8E-5	1757857.48397297	1652100.54249361	1585658.31543726	1491994.13160386
3.9E-5	1753323.59844208	1647676.14083421	1581326.0517981	1487808.10862102
4E-5	1748907.76061274	1643369.25097981	1577109.65500896	1483734.62933826
4.1E-5	1744604.18410723	1639173.9907167	1573003.28025142	1479767.98017935
4.2E-5	1740407.4926807	1635084.90364719	1569001.50917291	1475902.86727378
4.3E-5	1736312.68259695	1631096.91929962	1565099.30961844	1472134.37655475
4.4E-5	1732315.08920566	1627205.31778604	1561291.99998908	1468457.93847347
4.5E-5	1728410.35717167	1623405.69840053	1557575.21760531	1464869.29670479
4.6E-5	1724594.41388907	1619693.95164386	1553944.89054819	1461364.48031557
4.7E-5	1720863.44568062	1616066.23423637	1550397.21253048	1457939.77894698
4.8E-5	1717213.87644066	1612518.94674509	1546928.62041575	1454591.72062816
4.9E-5	1713642.34842704	1609048.71350423	1543535.77405815	1451317.05189423
5E-5	1710145.70494857	1605652.36455347	1540215.53818203	1448112.71992782
5.1E-5	1706720.97472831	1602326.91935594	1536964.96605897	1444975.85648253
5.2E-5	1703365.35775225	1599069.57209015	1533781.28477328	1441903.76337956
5.3E-5	1700076.21243772	1595877.67833711	1530661.88189407	1438893.89939676
5.4E-5	1696851.04397676	1592748.74300721	1527604.29339642	1435943.86839302
5.5E-5	1693687.49372824	1589680.40937114	1524606.19269399	1433051.40853131
5.6E-5	1690583.3295475	1586670.44907626	1521665.38066282	1430214.38248072
5.7E-5	1687536.4369563	1583716.75304416	1518779.77655104	1427430.76849313
5.8E-5	1684544.81106707	1580817.3231581	1515947.40968193	1424698.65226246
5.9E-5	1681606.54918566	1577970.26465949	1513166.41186883	1422016.21948596
6E-5	1678719.84402547	1575173.77918243	1510435.01047008	1419381.74905606
6.1E-5	1675882.97747346	1572426.15836311	1507751.52202037	1416793.60682003
6.2E-5	1673094.31485525	1569725.77796828	1505114.34638219	1414250.2398516
6.3E-5	1670352.29965214	1567071.09249309	1502521.96136729	1411750.17118508
6.4E-5	1667655.44862818	1564460.63018416	1499972.91778372	1409291.99496795
6.5E-5	1665002.34732968	1561892.98844833	1497465.83486874	1406874.37199277
6.6E-5	1662391.64592374	1559366.82961198	1494999.39607216	1404496.02557347
6.7E-5	1659822.0553455	1556880.87699922	1492572.34515837	1402155.73773457
6.8E-5	1657292.34372732	1554433.91130083	1490183.48259874	1399852.34568543
6.9E-5	1654801.33308539	1552024.76720836	1487831.66222882	1397584.73855444
7E-5	1652347.8962419	1549652.33029071	1485515.78814735	1395351.85436037
7.1E-5	1649930.95396306	1547315.53409244	1483234.81183663	1393152.6772007
7.2E-5	1647549.47229509	1545013.35743532	1480987.72948534	1390986.23463853
7.3E-5	1645202.46008198	1542744.82190626	1478773.57949723	1388851.59527148
7.4E-5	1642888.96665038	1540508.98951646	1476591.44017033	1386747.8664677
7.5E-5	1640608.07964841	1538304.96051796	1474440.4275329	1384674.19225532
7.6E-5	1638358.92302611	1536131.87136516	1472319.69332367	1382629.75135313
7.7E-5	1636140.65514684	1533988.89280982	1470228.42310497	1380613.75533129
7.8E-5	1633952.46701937	1531875.22811936	1468165.83449837	1378625.44689195
7.9E-5	1631793.5806416	1529790.11140887	1466131.17553356	1376664.09826052
8E-5	1629663.24744769	1527732.8060784	1464123.72310174	1374729.00967916
8.1E-5	1627560.74685079	1525702.60334759	1462142.78150577	1372819.50799486
8.2E-5	1625485.38487458	1523698.82088048	1460187.68109994	1370934.94533505
8.3E-5	1623436.49286707	1521720.80149396	1458257.77701275	1369074.69786431
8.4E-5	1621413.42629097	1519767.91194383	1456352.44794677	1367238.16461635
8.5E-5	1619415.56358504	1517839.54178293	1454471.09505	1365424.76639583
8.6E-5	1617442.30509176	1515935.10228638	1452613.14085381	1363633.94474513
8.7E-5	1615493.07204645	1514054.02543909	1450778.02827266	1361865.16097143
8.8E-5	1613567.30562389	1512195.76298144	1448965.21966152	1360117.89523005
8.9E-5	1611664.46603851	1510359.78550906	1447174.19592688	1358391.64566012
9E-5	1609784.03169453	1508545.58162319	1445404.45568783	1356685.92756906
9.1E-5	1607925.49838289	1506752.65712806	1443655.51448395	1355000.27266264
9.2E-5	1606088.37852173	1504980.53427253	1441926.90402674	1353334.22831754
9.3E-5	1604272.20043785	1503228.7510327	1440218.17149188	1351687.35689371
9.4E-5	1602476.50768637	1501496.86043324	1438528.87884963	1350059.23508389
9.5E-5	1600700.85840623	1499784.42990473	1436858.60223106	1348449.45329793
9.6E-5	1598944.82470932	1498091.04067483	1435206.93132756	1346857.6150797
9.7E-5	1597207.99210113	1496416.28719115	1433573.46882189	1345283.33655459
9.8E-5	1595489.958931	1494759.77657393	1431957.82984861	1343726.24590562
9.9E-5	1593790.33587017	1493121.12809655	1430359.64148206	1342185.98287647
1E-4	1592108.74541605	1491499.97269243	1428778.54225044	1340662.19829976
1.01E-4	1590444.82142094	1489895.95248643	1427214.18167414	1339154.55364905
1.02E-4	1588798.20864406	1488308.72034966	1425666.21982708	1337662.72061321
1.03E-4	1587168.56232525	1486737.93947595	1424134.32691965	1336186.38069173
1.04E-4	1585555.54777928	1485183.28297903	1422618.18290198	1334725.22480985
1.05E-4	1583958.84000949	1483644.43350905	1421117.47708627	1333278.95295228
1.06E-4	1582378.12333976	1482121.08288737	1419631.90778735	1331847.27381454
1.07E-4	1580813.09106367	1480612.93175865	1418161.18198009	1330429.90447079
1.08E-4	1579263.44510995	1479119.6892592	1416705.01497307	1329026.57005731
1.09E-4	1577728.89572338	1477641.07270068	1415263.13009724	1327637.00347078
1.1E-4	1576209.16116017	1476176.80726839	1413835.25840911	1326260.94508045
1.11E-4	1574703.96739717	1474726.62573328	1412421.13840736	1324898.14245347
1.12E-4	1573213.04785403	1473290.26817693	1411020.51576235	1323548.35009276
1.13E-4	1571736.1431278	1471867.48172891	1409633.14305776	1322211.32918659
1.14E-4	1570273.00073912	1470458.02031571	1408258.77954368	1320886.84736935
1.15E-4	1568823.37488953	1469061.64442074	1406897.19090063	1319574.67849292
1.16E-4	1567387.02622928	1467678.12085481	1405548.14901389	1318274.60240797
1.17E-4	1565963.72163508	1466307.2225365	1404211.43175756	1316986.40475488
1.18E-4	1564553.23399734	1464948.72828199	1402886.82278797	1315709.87676354
1.19E-4	1563155.34201636	1463602.42260373	1401574.11134584	1314444.81506178
1.2E-4	1561769.83000707	1462268.09551771	1400273.09206685	1313191.02149189
1.21E-4	1560396.48771183	1460945.54235869	1398983.56480004	1311948.30293481
1.22E-4	1559035.110121	1459634.56360315	1397705.33443393	1310716.4711417
1.23E-4	1557685.49730079	1458334.9646995	1396438.21072963	1309495.34257244
1.24E-4	1556347.4542281	1457046.55590522	1395182.0081609	1308284.73824071
1.25E-4	1555020.790632	1455769.15213054	1393936.54576064	1307084.48356543
1.26E-4	1553705.32084152	1454502.57278851	1392701.64697358	1305894.40822816
1.27E-4	1552400.8636395	1453246.64165094	1391477.13951482	1304714.3460362
1.28E-4	1551107.24212209	1452001.18671005	1390262.85523401	1303544.13479112
1.29E-4	1549824.28356385	1450766.04004559	1389058.62998486	1302383.61616249
1.3E-4	1548551.81928794	1449541.0376971	1387864.30349973	1301232.63556653
1.31E-4	1547289.6845414	1448326.0195411	1386679.71926909	1300091.04204946
1.32E-4	1546037.71837507	1447120.82917297	1385504.72442558	1298958.68817535
1.33E-4	1544795.76352816	1445925.31379341	1384339.16963251	1297835.42991826
1.34E-4	1543563.66631708	1444739.32409907	1383182.90897662	1296721.12655844
1.35E-4	1542341.27652839	1443562.71417734	1382035.79986476	1295615.64058245
1.36E-4	1541128.44731583	1442395.34140506	1380897.70292458	1294518.83758707
1.37E-4	1539925.03510096	1441237.06635098	1379768.4819087	1293430.58618664
1.38E-4	1538730.89947756	1440087.75268172	1378648.00360262	1292350.75792394
1.39E-4	1537545.90311944	1438947.26707126	1377536.13773579	1291279.22718426
1.4E-4	1536369.9116915	1437815.47911363	1376432.75689602	1290215.87111264
1.41E-4	1535202.79376411	1436692.26123875	1375337.73644697	1289160.56953396
1.42E-4	1534044.42073037	1435577.48863128	1374250.9544485	1288113.20487611
1.43E-4	1532894.66672636	1434471.03915233	1373172.29157993	1287073.66209566
1.44E-4	1531753.40855418	1433372.79326394	1372101.63106596	1286041.82860631
1.45E-4	1530620.52560764	1432282.63395616	1371038.85860521	1285017.59420978
1.46E-4	1529495.8998005	1431200.44667672	1369983.8623012	1284000.85102909
1.47E-4	1528379.41549719	1430126.11926302	1368936.53259576	1282991.49344421
1.48E-4	1527270.9594459	1429059.54187658	1367896.76220467	1281989.41802986
1.49E-4	1526170.42071387	1428000.60693957	1366864.44605554	1280994.52349546
1.5E-4	1525077.69062491	1426949.20907362	1365839.48122776	1280006.71062706
1.51E-4	1523992.66269898	1425905.24504058	1364821.76689448	1279025.88223134
1.52E-4	1522915.23259378	1424868.6136853	1363811.20426652	1278051.94308135
1.53E-4	1521845.29804824	1423839.21588031	1362807.69653813	1277084.79986412
1.54E-4	1520782.7588279	1422816.95447227	1361811.14883455	1276124.36113001
1.55E-4	1519727.51667201	1421801.7342302	1360821.4681613	1275170.53724366
1.56E-4	1518679.47524236	1420793.46179544	1359838.56335508	1274223.2403366
1.57E-4	1517638.54007379	1419792.04563312	1358862.34503628	1273282.38426137
1.58E-4	1516604.61852621	1418797.39598525	1357892.72556301	1272347.88454707
1.59E-4	1515577.61973821	1417809.42482531	1356929.61898661	1271419.65835644
1.6E-4	1514557.45458203	1416828.04581426	1355972.94100856	1270497.62444414
1.61E-4	1513544.03562009	1415853.17425789	1355022.60893872	1269581.70311655
1.62E-4	1512537.2770627	1414884.72706561	1354078.54165492	1268671.8161926
1.63E-4	1511537.0947272	1413922.62271039	1353140.65956378	1267767.88696606
1.64E-4	1510543.40599834	1412966.78119005	1352208.88456279	1266869.84016876
1.65E-4	1509556.12978978	1412017.12398966	1351283.14000343	1265977.60193516
1.66E-4	1508575.18650689	1411073.57404514	1350363.35065562	1265091.09976784
1.67E-4	1507600.49801057	1410136.05570792	1349449.44267304	1264210.26250412
1.68E-4	1506631.98758219	1409204.4947107	1348541.34355962	1263335.02028369
1.69E-4	1505669.57988959	1408278.81813421	1347638.98213703	1262465.30451716
1.7E-4	1504713.20095408	1407358.95437495	1346742.28851307	1261601.0478556
1.71E-4	1503762.77811837	1406444.83311397	1345851.19405109	1260742.184161
1.72E-4	1502818.24001554	1405536.38528645	1344965.63134024	1259888.6484775
1.73E-4	1501879.51653877	1404633.54305222	1344085.53416661	1259040.37700362
1.74E-4	1500946.53881212	1403736.2397672	1343210.83748525	1258197.30706513
1.75E-4	1500019.23916197	1402844.40995554	1342341.47739293	1257359.37708886
1.76E-4	1499097.55108941	1401957.98928268	1341477.39110175	1256526.52657715
1.77E-4	1498181.4092434	1401076.91452913	1340618.51691348	1255698.69608315
1.78E-4	1497270.7493946	1400201.12356496	1339764.79419463	1254875.82718664
1.79E-4	1496365.50841004	1399330.55532509	1338916.16335222	1254057.86247079
1.8E-4	1495465.62422846	1398465.14978523	1338072.56581024	1253244.74549932
1.81E-4	1494571.03583633	1397604.84793846	1337233.94398678	1252436.42079449
1.82E-4	1493681.68324452	1396749.59177254	1336400.2412718	1251632.83381561
1.83E-4	1492797.50746568	1395899.32424782	1335571.40200547	1250833.93093815
1.84E-4	1491918.45049214	1395053.98927568	1334747.37145717	1250039.65943348
1.85E-4	1491044.45527451	1394213.53169769	1333928.09580502	1249249.96744911
1.86E-4	1490175.46570079	1393377.89726526	1333113.522116	1248464.8039895
1.87E-4	1489311.42657608	1392547.03261981	1332303.59832658	1247684.11889737
1.88E-4	1488452.28360282	1391720.8852736	1331498.27322391	1246907.86283552
1.89E-4	1487597.98336155	1390899.4035909	1330697.49642745	1246135.98726918
1.9E-4	1486748.47329223	1390082.53676983	1329901.21837117	1245368.44444876
1.91E-4	1485903.70167597	1389270.23482457	1329109.39028617	1244605.18739311
1.92E-4	1485063.61761729	1388462.44856807	1328321.96418378	1243846.16987322
1.93E-4	1484228.17102687	1387659.12959524	1327538.8928391	1243091.3463963
1.94E-4	1483397.31260469	1386860.23026655	1326760.12977493	1242340.67219035
1.95E-4	1482570.99382364	1386065.70369205	1325985.62924624	1241594.10318909
1.96E-4	1481749.16691356	1385275.50371585	1325215.34622486	1240851.59601725
1.97E-4	1480931.78484563	1384489.58490091	1324449.23638473	1240113.10797632
1.98E-4	1480118.80131725	1383707.90251434	1323687.25608744	1239378.59703061
1.99E-4	1479310.17073722	1382930.41251296	1322929.36236815	1238648.02179363
2E-4	1478505.84821137	1382157.0715293	1322175.5129219	1237921.34151493
2.01E-4	1477705.78952846	1381387.83685792	1321425.6660902	1237198.51606717
2.02E-4	1476909.9511465	1380622.66644208	1320679.78084805	1236479.50593352
2.03E-4	1476118.2901794	1379861.51886073	1319937.81679118	1235764.27219546
2.04E-4	1475330.76438395	1379104.35331587	1319199.73412372	1235052.77652079
2.05E-4	1474547.33214707	1378351.12962016	1318465.49364604	1234344.98115199
2.06E-4	1473767.95247348	1377601.80818486	1317735.05674303	1233640.84889484
2.07E-4	1472992.58497352	1376856.35000811	1317008.38537257	1232940.34310733
2.08E-4	1472221.18985143	1376114.7166634	1316285.44205432	1232243.42768887
2.09E-4	1471453.72789381	1375376.8702884	1315566.18985876	1231550.06706967
2.1E-4	1470690.16045834	1374642.77357402	1314850.59239654	1230860.22620053
2.11E-4	1469930.44946286	1373912.38975379	1314138.61380802	1230173.87054269
2.12E-4	1469174.55737463	1373185.68259337	1313430.21875312	1229490.96605809
2.13E-4	1468422.44719992	1372462.61638047	1312725.37240139	1228811.47919974
2.14E-4	1467674.08247373	1371743.15591487	1312024.04042228	1228135.37690243
2.15E-4	1466929.42724989	1371027.26649874	1311326.1889757	1227462.62657352
2.16E-4	1466188.44609127	1370314.91392723	1310631.7847028	1226793.19608409
2.17E-4	1465451.1040603	1369606.06447916	1309940.79471685	1226127.0537602
2.18E-4	1464717.36670969	1368900.68490804	1309253.18659453	1225464.16837441
2.19E-4	1463987.20007332	1368198.74243323	1308568.92836722	1224804.50913742
2.2E-4	1463260.57065741	1367500.20473134	1307887.98851267	1224148.04569003
2.21E-4	1462537.44543183	1366805.03992781	1307210.33594669	1223494.74809514
2.22E-4	1461817.79182163	1366113.2165887	1306535.94001519	1222844.58683005
2.23E-4	1461101.57769879	1365424.70371261	1305864.77048625	1222197.53277886
2.24E-4	1460388.77137411	1364739.47072288	1305196.79754254	1221553.55722508
2.25E-4	1459679.34158932	1364057.48745988	1304531.99177372	1220912.63184441
2.26E-4	1458973.25750931	1363378.72417349	1303870.32416917	1220274.72869763
2.27E-4	1458270.48871463	1362703.15151581	1303211.76611081	1219639.82022375
2.28E-4	1457571.00519404	1362030.74053394	1302556.28936606	1219007.87923318
2.29E-4	1456874.77733732	1361361.46266297	1301903.86608101	1218378.87890117
2.3E-4	1456181.77592819	1360695.28971913	1301254.46877374	1217752.79276133
2.31E-4	1455491.97213739	1360032.19389308	1300608.07032769	1217129.59469933
2.32E-4	1454805.33751591	1359372.14774335	1299964.64398531	1216509.25894666
2.33E-4	1454121.84398839	1358715.12418986	1299324.16334178	1215891.76007465
2.34E-4	1453441.46384664	1358061.09650774	1298686.60233885	1215277.07298852
2.35E-4	1452764.16974327	1357410.03832107	1298051.93525883	1214665.17292159
2.36E-4	1452089.93468555	1356761.92359697	1297420.13671874	1214056.03542961
2.37E-4	1451418.73202929	1356116.72663963	1296791.18166455	1213449.63638525
2.38E-4	1450750.53547292	1355474.42208457	1296165.04536554	1212845.95197262
2.39E-4	1450085.31905167	1354834.98489303	1295541.7034088	1212244.95868203
2.4E-4	1449423.0571319	1354198.39034643	1294921.13169386	1211646.63330473
2.41E-4	1448763.72440549	1353564.61404096	1294303.30642735	1211050.95292785
2.42E-4	1448107.29588443	1352933.63188226	1293688.2041179	1210457.89492941
2.43E-4	1447453.74689541	1352305.42008033	1293075.80157105	1209867.43697346
2.44E-4	1446803.05307468	1351679.95514434	1292466.07588428	1209279.55700528
2.45E-4	1446155.19036282	1351057.21387776	1291859.00444218	1208694.23324673
2.46E-4	1445510.13499982	1350437.17337343	1291254.56491171	1208111.44419165
2.47E-4	1444867.8635201	1349819.81100881	1290652.7352375	1207531.16860136
2.48E-4	1444228.35274771	1349205.10444135	1290053.49363734	1206953.3855003
2.49E-4	1443591.57979161	1348593.03160384	1289456.81859766	1206378.07417172
2.5E-4	1442957.52204107	1347983.5707	1288862.68886922	1205805.21415343
2.51E-4	1442326.1571611	1347376.70020005	1288271.08346276	1205234.7852337
2.52E-4	1441697.46308804	1346772.39883641	1287681.98164484	1204666.7674472
2.53E-4	1441071.4180252	1346170.64559951	1287095.36293371	1204101.14107104
2.54E-4	1440448.00043859	1345571.41973362	1286511.20709526	1203537.88662085
2.55E-4	1439827.18905275	1344974.70073283	1285929.49413909	1202976.98484703
2.56E-4	1439208.96284666	1344380.46833706	1285350.20431461	1202418.41673094
2.57E-4	1438593.30104969	1343788.70252818	1284773.31810727	1201862.16348131
2.58E-4	1437980.1831377	1343199.3835262	1284198.81623482	1201308.2065306
2.59E-4	1437369.58882916	1342612.4917855	1283626.67964363	1200756.52753149
2.6E-4	1436761.49808136	1342028.00799121	1283056.88950515	1200207.10835344
