Voltage (V)	Current (A)	Current (A)	Current (A)	Current (A)	Current (A)
	R = 4.85 KÙ	R = 5.11 KÙ	R = 5.32 KÙ	R = 5.50 KÙ	R = 5.70 KÙ
-0.5	1.05825367704025E-4	1.00459077359104E-4	9.65541867577619E-5	9.33361783274326E-5	9.01293626677811E-5
-0.49	1.02365017888272E-4	9.71741981531785E-5	9.33969923193556E-5	9.02842085163589E-5	8.71822514952152E-5
-0.48	9.89968034984637E-5	9.39767822850463E-5	9.03238614785229E-5	8.73135005873168E-5	8.43136102339735E-5
-0.47	9.5717692914289E-5	9.08639518645938E-5	8.73320282100644E-5	8.44213807026414E-5	8.15208569132817E-5
-0.46	9.25247347148753E-5	8.78329051343203E-5	8.44187996620837E-5	8.16052457592125E-5	7.88014778666349E-5
-0.45	8.94150550223119E-5	8.48809139475665E-5	8.15815537322388E-5	7.88625610454862E-5	7.61530254693273E-5
-0.44	8.63858549149659E-5	8.20053213129991E-5	7.8817736707673E-5	7.61908579600835E-5	7.35731159354256E-5
-0.43	8.34344079082635E-5	7.92035390031387E-5	7.6124860966501E-5	7.3587731789882E-5	7.10594271722001E-5
-0.42	8.055805750067E-5	7.64730452247804E-5	7.35005027387811E-5	7.10508395456123E-5	6.86096966900847E-5
-0.41	7.77542147826592E-5	7.38113823492098E-5	7.09422999249588E-5	6.85778978530092E-5	6.6221719566284E-5
-0.4	7.50203561065197E-5	7.12161547001713E-5	6.8447949969818E-5	6.61666808976208E-5	6.3893346460193E-5
-0.39	7.2354020814902E-5	6.86850263975975E-5	6.60152077900251E-5	6.38150184214252E-5	6.16224816788465E-5
-0.38	6.97528090260606E-5	6.621571925516E-5	6.36418837534036E-5	6.15207937694519E-5	5.94070812906533E-5
-0.37	6.72143794737986E-5	6.38060107297473E-5	6.13258417081161E-5	5.92819419846493E-5	5.72451512857199E-5
-0.36	6.47364474001697E-5	6.14537319210263E-5	5.90649970599844E-5	5.70964479492839E-5	5.51347457811073E-5
-0.35	6.23167824990422E-5	5.91567656192855E-5	5.68573148962136E-5	5.49623445711988E-5	5.30739652694047E-5
-0.34	5.9953206908673E-5	5.69130443998036E-5	5.47008081538333E-5	5.28777110132973E-5	5.10609549090448E-5
-0.33	5.76435932514843E-5	5.47205487620272E-5	5.25935358312068E-5	5.08406709646604E-5	4.90939028548207E-5
-0.32	5.53858627192813E-5	5.25773053118846E-5	5.05336012409985E-5	4.88493909517399E-5	4.71710386271039E-5
-0.31	5.31779832021836E-5	5.04813849855972E-5	4.85191503030276E-5	4.69020786881087E-5	4.52906315182922E-5
-0.3	5.10179674595893E-5	4.84309013133925E-5	4.65483698754703E-5	4.49969814612822E-5	4.34509890350562E-5
-0.29	4.89038713315249E-5	4.64240087215539E-5	4.46194861229101E-5	4.31323845551582E-5	4.16504553749815E-5
-0.28	4.68337919887691E-5	4.44589008712792E-5	4.27307629197662E-5	4.13066097066571E-5	3.98874099362344E-5
-0.27	4.4805866220179E-5	4.25338090328545E-5	4.08805002876632E-5	3.95180135951718E-5	3.81602658589109E-5
-0.26	4.28182687556738E-5	4.06470004936776E-5	3.90670328653355E-5	3.77649863634681E-5	3.64674685967555E-5
-0.25	4.08692106233685E-5	3.87967769986999E-5	3.72887284096905E-5	3.60459501687046E-5	3.48074945179653E-5
-0.24	3.89569375393788E-5	3.6981473221882E-5	3.5543986326679E-5	3.43593577622675E-5	3.31788495338176E-5
-0.23	3.70797283288466E-5	3.51994552672881E-5	3.38312362306524E-5	3.27036910971428E-5	3.15800677538898E-5
-0.22	3.52358933767672E-5	3.34491191984694E-5	3.21489365309105E-5	3.10774599615708E-5	3.00097101666591E-5
-0.21	3.3423773107221E-5	3.17288895948125E-5	3.04955730441646E-5	2.94792006377557E-5	2.84663633442946E-5
-0.2	3.16417364896437E-5	3.00372181335552E-5	2.88696576316715E-5	2.79074745844204E-5	2.69486381704771E-5
-0.19	2.98881795707884E-5	2.83725821961912E-5	2.72697268598072E-5	2.6360867142022E-5	2.54551685901007E-5
-0.18	2.81615240310594E-5	2.67334834980105E-5	2.56943406828785E-5	2.48379862594634E-5	2.39846103797308E-5
-0.17	2.64602157639183E-5	2.51184467395423E-5	2.41420811469844E-5	2.33374612411527E-5	2.25356399377124E-5
-0.16	2.47827234770828E-5	2.35260182786857E-5	2.2611551113762E-5	2.18579415132849E-5	2.11069530928393E-5
-0.15	2.31275373142607E-5	2.19547648223338E-5	2.11013730028675E-5	2.03980954082344E-5	1.96972639305118E-5
-0.14	2.14931674961771E-5	2.04032721363131E-5	1.96101875520609E-5	1.89566089659641E-5	1.8305303635327E-5
-0.13	1.98781429796724E-5	1.88701437724773E-5	1.81366525937786E-5	1.75321847513726E-5	1.69298193490591E-5
-0.12	1.82810101336642E-5	1.73539998118096E-5	1.66794418470914E-5	1.61235406865153E-5	1.55695730430024E-5
-0.11	1.67003314307816E-5	1.58534756224027E-5	1.52372437239628E-5	1.47294088966475E-5	1.42233404036621E-5
-0.1	1.51346841534929E-5	1.43672206311976E-5	1.38087601487305E-5	1.33485345690516E-5	1.28899097307894E-5
-0.09	1.35826591135641E-5	1.28938971083771E-5	1.23927053897513E-5	1.1979674823621E-5	1.15680808467694E-5
-0.08	1.20428593836946E-5	1.14321789633183E-5	1.09878049021556E-5	1.0621597594184E-5	1.02566640163804E-5
-0.07	1.05138990401877E-5	9.98075055102172E-6	9.59279418067099E-6	9.2730805195611E-6	8.95447887595172E-6
-0.06	8.99440191552654E-6	8.53830548794193E-6	8.20641762148197E-6	7.93290984335749E-6	7.66035337095685E-6
-0.05	7.48300035972966E-6	7.1035454761542E-6	6.82742739210209E-6	6.59987932150039E-6	6.3731227010852E-6
-0.04	5.97833400937422E-6	5.67517913479872E-6	5.45458230824028E-6	5.27278913653786E-6	5.09162827184322E-6
-0.03	4.47904856317687E-6	4.25192083775063E-6	4.08664671665124E-6	3.95044481772215E-6	3.81471665174112E-6
-0.02	2.98379456303123E-6	2.8324895564698E-6	2.72238938296412E-6	2.63165616590543E-6	2.5412385341267E-6
-0.01	1.49122617940449E-6	1.41560770698856E-6	1.36058238348846E-6	1.31523618228014E-6	1.27004770273172E-6
0	0	0	0	0	0
0.01	1.49198570283075E-6	1.41632871580044E-6	1.36127536635577E-6	1.31590606905205E-6	1.27069457374031E-6
0.02	2.98531429350611E-6	2.83393222305016E-6	2.72377597243011E-6	2.63299654239257E-6	2.54253285837143E-6
0.03	4.48132986856039E-6	4.25408646059678E-6	4.08872816074003E-6	3.95245689035384E-6	3.81665959420121E-6
0.04	5.9813789429952E-6	5.6780696631174E-6	5.45736048039204E-6	5.27547471631527E-6	5.09422158129803E-6
0.05	7.48681166223391E-6	7.10716351161602E-6	6.83090479285929E-6	6.60324082562661E-6	6.37636871168828E-6
0.0600000000000001	8.99898301734357E-6	8.54265428702302E-6	8.21059738074003E-6	7.93695029741315E-6	7.66425500433685E-6
0.0700000000000001	1.05192540646184E-5	9.98583402793481E-6	9.59768006049537E-6	9.27780356022757E-6	8.95903964384206E-6
0.08	1.20489931506224E-5	1.14380016935357E-5	1.0993401300168E-5	1.06270074725167E-5	1.026188802378E-5
0.09	1.35895771437933E-5	1.29004643327492E-5	1.23990173430876E-5	1.19857764088757E-5	1.15739727956376E-5
0.1	1.51423926737177E-5	1.43745382606695E-5	1.38157933385748E-5	1.33553333530668E-5	1.28964749242779E-5
0.11	1.67088373791905E-5	1.58615502433349E-5	1.52450044806608E-5	1.47369109987877E-5	1.42305847508882E-5
0.12	1.8290321166185E-5	1.7362838691906E-5	1.6687937155848E-5	1.61317528591789E-5	1.55775030643676E-5
0.13	1.98882674768628E-5	1.88797548673267E-5	1.8145890100945E-5	1.75411143860693E-5	1.6938442182118E-5
0.14	2.15041145707681E-5	2.04136640965496E-5	1.96201755720172E-5	1.89662640999679E-5	1.83146270412113E-5
0.15	2.31393168193583E-5	2.19659470014231E-5	2.11121205255058E-5	2.04084847318177E-5	1.97072963009162E-5
0.16	2.47953460150367E-5	2.35380007413438E-5	2.26230678125782E-5	2.18690743775402E-5	2.11177034575744E-5
0.17	2.64736926958648E-5	2.51312402707943E-5	2.41543773877849E-5	2.33493476664093E-5	2.2547117972832E-5
0.18	2.81758674871469E-5	2.67470996128983E-5	2.57074275331099E-5	2.48506369443064E-5	2.39968264162414E-5
0.19	2.99034024610956E-5	2.83870331501372E-5	2.72836160985182E-5	2.63742934729217E-5	2.54681336232597E-5
0.2	3.16578525157996E-5	3.00525169333934E-5	2.88843617601144E-5	2.79216886459809E-5	2.69623638696896E-5
0.21	3.34407967747368E-5	3.17450500104955E-5	3.05111052970477E-5	2.94942152235919E-5	2.84808620636164E-5
0.22	3.52538400080929E-5	3.34661557754621E-5	3.21653108883097E-5	3.10932885858235E-5	3.00249949559162E-5
0.23	3.70986140771618E-5	3.521738333966E-5	3.38484674305948E-5	3.27203480066422E-5	3.15961523704244E-5
0.24	3.89767794031318E-5	3.70003089261083E-5	3.55620898784076E-5	3.43768579493567E-5	3.31957484548702E-5
0.25	4.08900264615761E-5	3.88165372881858E-5	3.73077206076239E-5	3.60643093847331E-5	3.48252229537056E-5
0.26	4.28400773039954E-5	4.06677031540176E-5	3.90869308037339E-5	3.77842211329697E-5	3.64860425039725E-5
0.27	4.48286871077803E-5	4.25554726978403E-5	4.09013218760142E-5	3.95381412307374E-5	3.81797019553747E-5
0.28	4.68576457559893E-5	4.44815450396716E-5	4.27525268989049E-5	4.13276483245173E-5	3.99077257157439E-5
0.29	4.89287794483647E-5	4.6447653774633E-5	4.46422120818868E-5	4.31543530914893E-5	4.16716691231096E-5
0.3	5.10439523450354E-5	4.84555685333023E-5	4.65720782691822E-5	4.50198996892499E-5	4.34731198456081E-5
0.31	5.32050682443867E-5	5.05070965745005E-5	4.85438624706293E-5	4.69259672356651E-5	4.53136993104913E-5
0.32	5.54140722966078E-5	5.26040844119471E-5	5.05593394251091E-5	4.88742713201903E-5	4.71950641635204E-5
0.33	5.76729527544579E-5	5.47484194762467E-5	5.26203231979293E-5	5.08665655480159E-5	4.91189077600591E-5
0.34	5.99837427628282E-5	5.69420318137041E-5	5.47286688136059E-5	5.2904643118431E-5	5.10869616892075E-5
0.35	6.23485221887091E-5	5.91868958234962E-5	5.68862739255108E-5	5.49903384388231E-5	5.31009973323497E-5
0.36	6.47694194932114E-5	6.14850320347649E-5	5.90950805238873E-5	5.71255287757694E-5	5.51628274575158E-5
0.37	6.72486136473245E-5	6.38385089252289E-5	6.1357076683773E-5	5.93121359447028E-5	5.72743078509962E-5
0.38	6.97883360931378E-5	6.62494447829544E-5	6.36742983544009E-5	6.15521280396757E-5	5.94373389876743E-5
0.39	7.23908727522889E-5	6.87200096129561E-5	6.60488311916919E-5	6.38475212047776E-5	6.1653867741582E-5
0.4	7.50585660834477E-5	7.12524270903494E-5	6.84828124354853E-5	6.62003814488007E-5	6.39258891382181E-5
0.41	7.77938171906867E-5	7.3848976561807E-5	7.09784328331991E-5	6.86128265047876E-5	6.62554481502055E-5
0.42	8.05990879846376E-5	7.65119950971258E-5	7.35379386116508E-5	7.10870277361335E-5	6.8644641537905E-5
0.43	8.34769033983762E-5	7.92438795927465E-5	7.61636334988127E-5	7.36252120909603E-5	7.1095619736641E-5
0.44	8.64298536600335E-5	8.20470889291232E-5	7.88578807973231E-5	7.62296641065199E-5	7.36105887922383E-5
0.45	8.94605966241748E-5	8.49241461838806E-5	8.16231055116177E-5	7.8902727965432E-5	7.61918123466123E-5
0.46	9.25718601640494E-5	8.78776409027554E-5	8.44617965305976E-5	8.16468096056069E-5	7.88416136752E-5
0.47	9.57664446268597E-5	9.09102314303613E-5	8.73765088677974E-5	8.44643788857518E-5	8.15623777780639E-5
0.48	9.90472253542631E-5	9.40246473028794E-5	9.03698659610695E-5	8.73579718084105E-5	8.43565535265537E-5
0.49	1.02417155270374E-4	9.72236917048241E-5	9.34445620338555E-5	9.03301928025368E-5	8.72266558674556E-5
0.5	1.05879267539593E-4	1.00510243992099E-4	9.66033645201691E-5	9.33837170676564E-5	9.01752680866141E-5
